wavelength,flux,error
2.3595,483.91,4.41
2.35962,483.21,4.41
2.35975,482.56,4.4
2.35987,481.94,4.4
2.36,481.42,4.4
2.36012,481.02,4.4
2.36025,480.8,4.39
2.36037,480.74,4.39
2.3605,480.85,4.39
2.36063,481.16,4.39
2.36075,481.67,4.38
2.36087,482.37,4.38
2.361,483.24,4.38
2.36112,484.27,4.38
2.36125,485.39,4.37
2.36137,486.61,4.37
2.3615,487.87,4.37
2.36162,489.14,4.35
2.36175,490.41,4.35
2.36187,491.63,4.35
2.362,492.79,4.35
2.36212,493.83,4.34
2.36225,494.74,4.34
2.36238,495.49,4.34
2.3625,496.05,4.33
2.36262,496.38,4.33
2.36275,496.54,4.33
2.36287,496.52,4.32
2.363,496.4,4.32
2.36312,496.14,4.32
2.36325,495.83,4.32
2.36337,495.47,4.31
2.3635,495.09,4.31
2.36363,494.7,4.31
2.36375,494.29,4.3
2.36387,493.88,4.3
2.364,493.5,4.3
2.36413,493.1,4.29
2.36425,492.74,4.29
2.36437,492.44,4.29
2.3645,492.2,4.28
2.36462,492.07,4.28
2.36475,492.06,4.28
2.36487,492.18,4.26
2.365,492.41,4.26
2.36512,492.71,4.26
2.36525,493.06,4.25
2.36538,493.4,4.25
2.3655,493.69,4.25
2.36562,493.92,4.25
2.36575,494.1,4.24
2.36588,494.26,4.24
2.366,494.38,4.23
2.36612,494.55,4.23
2.36625,494.78,4.23
2.36637,495.1,4.22
2.3665,495.58,4.22
2.36662,496.18,4.22
2.36675,496.91,4.21
2.36687,497.74,4.21
2.367,498.66,4.21
2.36713,499.54,4.2
2.36725,500.34,4.2
2.36737,501.05,4.2
2.3675,501.61,4.18
2.36762,502.04,4.18
2.36775,502.38,4.18
2.36787,502.7,4.17
2.368,503.1,4.17
2.36812,503.58,4.16
2.36825,504.19,4.16
2.36837,504.97,4.16
2.3685,505.92,4.15
2.36862,506.96,4.15
2.36875,508.08,4.15
2.36888,509.15,4.14
2.369,510.11,4.14
2.36912,510.88,4.13
2.36925,511.42,4.13
2.36937,511.71,4.13
2.3695,511.8,4.12
2.36962,511.68,4.12
2.36975,511.47,4.12
2.36987,511.18,4.11
2.37,510.85,4.11
2.37012,510.53,4.09
2.37025,510.21,4.09
2.37037,509.85,4.09
2.3705,509.48,4.08
2.37063,509.06,4.08
2.37075,508.63,4.07
2.37087,508.21,4.07
2.371,507.84,4.07
2.37112,507.51,4.06
2.37125,507.31,4.06
2.37137,507.19,4.05
2.3715,507.24,4.05
2.37162,507.36,4.05
2.37175,507.57,4.04
2.37188,507.77,4.04
2.372,507.96,4.03
2.37212,508.05,4.03
2.37225,508.05,4.03
2.37238,507.94,4.02
2.3725,507.75,4.02
2.37262,507.51,4
2.37275,507.25,4
2.37287,507.1,4
2.373,507.04,3.99
2.37312,507.07,3.99
2.37325,507.23,3.98
2.37337,507.5,3.98
2.3735,507.83,3.98
2.37363,508.22,3.97
2.37375,508.66,3.97
2.37387,509.07,3.96
2.374,509.45,3.96
2.37413,509.75,3.95
2.37425,509.97,3.95
2.37437,510.07,3.95
2.3745,510,3.94
2.37462,509.75,3.94
2.37475,509.37,3.92
2.37487,508.85,3.92
2.375,508.21,3.92
2.37512,507.56,3.91
2.37525,506.92,3.91
2.37538,506.39,3.9
2.3755,506.01,3.9
2.37562,505.78,3.89
2.37575,505.71,3.89
2.37587,505.86,3.89
2.376,506.15,3.88
2.37612,506.55,3.88
2.37625,507.04,3.87
2.37637,507.55,3.87
2.3765,508.08,3.86
2.37662,508.53,3.86
2.37675,508.94,3.86
2.37687,509.31,3.85
2.377,509.59,3.85
2.37713,509.77,3.83
2.37725,509.85,3.83
2.37737,509.77,3.83
2.3775,509.52,3.82
2.37762,509.13,3.82
2.37775,508.56,3.81
2.37787,507.84,3.81
2.378,507.05,3.8
2.37812,506.22,3.8
2.37825,505.48,3.8
2.37837,504.92,3.79
2.3785,504.67,3.79
2.37862,504.82,3.78
2.37875,505.4,3.78
2.37888,506.35,3.78
2.379,507.64,3.77
2.37912,509.09,3.77
2.37925,510.53,3.75
2.37937,511.78,3.75
2.3795,512.66,3.75
2.37962,513.11,3.74
2.37975,513.13,3.74
2.37987,512.78,3.73
2.38,512.16,3.73
2.38013,511.36,3.73
2.38025,510.5,3.72
2.38037,509.66,3.72
2.3805,508.95,3.71
2.38063,508.38,3.71
2.38075,507.98,3.71
2.38087,507.78,3.7
2.381,507.76,3.7
2.38112,507.91,3.69
2.38125,508.21,3.69
2.38137,508.63,3.69
2.3815,509.08,3.68
2.38162,509.63,3.68
2.38175,510.14,3.68
2.38188,510.61,3.66
2.382,511.03,3.66
2.38212,511.38,3.65
2.38225,511.63,3.65
2.38238,511.81,3.65
2.3825,511.89,3.64
2.38262,511.94,3.64
2.38275,511.91,3.64
2.38287,511.83,3.63
2.383,511.66,3.63
2.38312,511.42,3.63
2.38325,511.12,3.62
2.38337,510.69,3.62
2.3835,510.18,3.62
2.38363,509.59,3.61
2.38375,508.96,3.61
2.38387,508.31,3.61
2.384,507.71,3.6
2.38412,507.23,3.6
2.38425,506.83,3.6
2.38437,506.54,3.59
2.3845,506.34,3.59
2.38462,506.17,3.59
2.38475,506.04,3.57
2.38487,505.89,3.57
2.385,505.71,3.57
2.38512,505.51,3.56
2.38525,505.27,3.56
2.38538,505.08,3.56
2.3855,504.97,3.55
2.38562,504.96,3.55
2.38575,505.15,3.55
2.38587,505.48,3.55
2.386,505.98,3.54
2.38612,506.65,3.54
2.38625,507.47,3.54
2.38637,508.38,3.53
2.3865,509.35,3.53
2.38662,510.35,3.53
2.38675,511.32,3.53
2.38687,512.23,3.52
2.387,513.02,3.52
2.38713,513.69,3.52
2.38725,514.16,3.52
2.38737,514.46,3.51
2.3875,514.55,3.51
2.38762,514.41,3.51
2.38775,514.06,3.51
2.38787,513.46,3.51
2.388,512.69,3.49
2.38812,511.74,3.49
2.38825,510.69,3.49
2.38838,509.57,3.49
2.3885,508.43,3.48
2.38862,507.31,3.48
2.38875,506.31,3.48
2.38888,505.46,3.48
2.389,504.8,3.48
2.38912,504.36,3.47
2.38925,504.1,3.47
2.38937,504.08,3.47
2.3895,504.21,3.47
2.38962,504.54,3.47
2.38975,504.94,3.47
2.38987,505.42,3.46
2.39,505.88,3.46
2.39013,506.3,3.46
2.39025,506.58,3.46
2.39037,506.66,3.46
2.3905,506.5,3.46
2.39062,506.07,3.46
2.39075,505.43,3.45
2.39087,504.57,3.45
2.391,503.62,3.45
2.39112,502.66,3.45
2.39125,501.83,3.45
2.39137,501.21,3.45
2.3915,500.84,3.45
2.39162,500.74,3.45
2.39175,500.92,3.45
2.39188,501.3,3.45
2.392,501.86,3.44
2.39212,502.49,3.44
2.39225,503.19,3.44
2.39237,503.95,3.44
2.3925,504.73,3.44
2.39262,505.59,3.44
2.39275,506.48,3.44
2.39287,507.45,3.44
2.393,508.45,3.44
2.39312,509.43,3.44
2.39325,510.37,3.44
2.39337,511.11,3.44
2.3935,511.61,3.44
2.39363,511.82,3.44
2.39375,511.7,3.44
2.39387,511.32,3.44
2.394,510.75,3.44
2.39412,510.07,3.44
2.39425,509.39,3.44
2.39437,508.78,3.44
2.3945,508.28,3.44
2.39462,507.96,3.44
2.39475,507.84,3.44
2.39488,507.95,3.44
2.395,508.28,3.44
2.39512,508.8,3.44
2.39525,509.52,3.44
2.39538,510.46,3.44
2.3955,511.54,3.44
2.39562,512.74,3.44
2.39575,513.97,3.44
2.39587,515.15,3.44
2.396,516.2,3.44
2.39612,516.96,3.44
2.39625,517.43,3.44
2.39637,517.53,3.44
2.3965,517.27,3.44
2.39663,516.68,3.44
2.39675,515.8,3.44
2.39687,514.69,3.44
2.397,513.49,3.44
2.39713,512.25,3.44
2.39725,511.13,3.44
2.39737,510.19,3.44
2.3975,509.56,3.45
2.39762,509.34,3.45
2.39775,509.57,3.45
2.39787,510.24,3.45
2.398,511.23,3.45
2.39812,512.49,3.45
2.39825,513.82,3.45
2.39838,515.04,3.45
2.3985,516.05,3.45
2.39862,516.75,3.46
2.39875,517.15,3.46
2.39887,517.27,3.46
2.399,517.17,3.46
2.39912,516.93,3.46
2.39925,516.63,3.46
2.39937,516.27,3.46
2.3995,515.93,3.46
2.39962,515.61,3.47
2.39975,515.3,3.47
2.39987,515.03,3.47
2.4,514.74,3.47
2.40013,514.43,3.47
2.40025,514.15,3.47
2.40037,513.91,3.47
2.4005,513.75,3.48
2.40062,513.78,3.48
2.40075,513.96,3.48
2.40087,514.33,3.48
2.401,514.89,3.48
2.40112,515.59,3.48
2.40125,516.42,3.49
2.40137,517.32,3.49
2.4015,518.27,3.49
2.40162,519.19,3.49
2.40175,520.1,3.49
2.40188,520.94,3.49
2.402,521.69,3.51
2.40212,522.38,3.51
2.40225,522.97,3.51
2.40237,523.48,3.51
2.4025,523.91,3.51
2.40262,524.25,3.52
2.40275,524.56,3.52
2.40287,524.82,3.52
2.403,525.02,3.52
2.40313,525.21,3.52
2.40325,525.35,3.53
2.40337,525.44,3.53
2.4035,525.48,3.53
2.40363,525.44,3.53
2.40375,525.36,3.53
2.40387,525.23,3.54
2.404,525.05,3.54
2.40412,524.89,3.54
2.40425,524.82,3.54
2.40437,524.85,3.54
2.4045,525.04,3.55
2.40462,525.47,3.55
2.40475,526.16,3.55
2.40488,527.09,3.55
2.405,528.24,3.55
2.40512,529.53,3.56
2.40525,530.81,3.56
2.40538,532,3.56
2.4055,533,3.56
2.40562,533.74,3.56
2.40575,534.2,3.57
2.40587,534.42,3.57
2.406,534.41,3.57
2.40612,534.19,3.57
2.40625,533.86,3.59
2.40637,533.46,3.59
2.4065,533.02,3.59
2.40663,532.56,3.59
2.40675,532.11,3.59
2.40687,531.69,3.6
2.407,531.3,3.6
2.40712,530.97,3.6
2.40725,530.71,3.6
2.40737,530.54,3.61
2.4075,530.43,3.61
2.40762,530.41,3.61
2.40775,530.47,3.61
2.40787,530.57,3.61
2.408,530.69,3.62
2.40812,530.81,3.62
2.40825,530.95,3.62
2.40838,531.08,3.62
2.4085,531.23,3.63
2.40862,531.41,3.63
2.40875,531.66,3.63
2.40887,532,3.63
2.409,532.39,3.63
2.40912,532.83,3.64
2.40925,533.31,3.64
2.40937,533.76,3.64
2.4095,534.15,3.64
2.40963,534.46,3.65
2.40975,534.66,3.65
2.40987,534.77,3.65
2.41,534.9,3.65
2.41013,535.04,3.65
2.41025,535.24,3.66
2.41037,535.58,3.66
2.4105,536.06,3.66
2.41062,536.67,3.66
2.41075,537.39,3.68
2.41087,538.17,3.68
2.411,538.98,3.68
2.41112,539.78,3.68
2.41125,540.45,3.68
2.41138,541,3.69
2.4115,541.37,3.69
2.41162,541.49,3.69
2.41175,541.33,3.69
2.41188,540.84,3.69
2.412,540.04,3.7
2.41212,538.95,3.7
2.41225,537.65,3.7
2.41237,536.25,3.7
2.4125,534.84,3.7
2.41262,533.57,3.71
2.41275,532.56,3.71
2.41287,531.85,3.71
2.413,531.47,3.71
2.41313,531.39,3.72
2.41325,531.59,3.72
2.41337,532.02,3.72
2.4135,532.57,3.72
2.41363,533.22,3.72
2.41375,533.89,3.72
2.41387,534.53,3.73
2.414,535.14,3.73
2.41412,535.68,3.73
2.41425,536.16,3.73
2.41437,536.58,3.73
2.4145,536.96,3.74
2.41462,537.34,3.74
2.41475,537.73,3.74
2.41488,538.13,3.74
2.415,538.56,3.74
2.41512,539,3.75
2.41525,539.43,3.75
2.41537,539.87,3.75
2.4155,540.24,3.75
2.41562,540.57,3.75
2.41575,540.84,3.75
2.41587,541.05,3.77
2.416,541.19,3.77
2.41612,541.32,3.77
2.41625,541.48,3.77
2.41637,541.66,3.77
2.4165,541.92,3.78
2.41663,542.3,3.78
2.41675,542.78,3.78
2.41687,543.36,3.78
2.417,544.03,3.78
2.41712,544.74,3.78
2.41725,545.43,3.79
2.41737,546.07,3.79
2.4175,546.66,3.79
2.41762,547.14,3.79
2.41775,547.54,3.79
2.41787,547.83,3.79
2.418,548.05,3.8
2.41812,548.14,3.8
2.41825,548.15,3.8
2.41838,548.05,3.8
2.4185,547.85,3.8
2.41862,547.56,3.8
2.41875,547.24,3.8
2.41887,546.87,3.81
2.419,546.53,3.81
2.41912,546.24,3.81
2.41925,546.03,3.81
2.41937,545.9,3.81
2.4195,545.87,3.81
2.41963,545.93,3.81
2.41975,546.07,3.82
2.41987,546.25,3.82
2.42,546.47,3.82
2.42013,546.77,3.82
2.42025,547.13,3.82
2.42037,547.56,3.82
2.4205,548.07,3.82
2.42062,548.66,3.83
2.42075,549.28,3.83
2.42087,549.93,3.83
2.421,550.59,3.83
2.42112,551.18,3.83
2.42125,551.63,3.83
2.42138,551.97,3.83
2.4215,552.16,3.83
2.42162,552.21,3.85
2.42175,552.11,3.85
2.42188,551.93,3.85
2.422,551.7,3.85
2.42212,551.45,3.85
2.42225,551.2,3.85
2.42237,550.94,3.85
2.4225,550.65,3.85
2.42262,550.31,3.86
2.42275,549.9,3.86
2.42287,549.39,3.86
2.423,548.8,3.86
2.42313,548.19,3.86
2.42325,547.59,3.86
2.42337,547.07,3.86
2.4235,546.69,3.86
2.42362,546.56,3.86
2.42375,546.68,3.86
2.42387,547.07,3.87
2.424,547.73,3.87
2.42412,548.59,3.87
2.42425,549.56,3.87
2.42438,550.55,3.87
2.4245,551.46,3.87
2.42462,552.25,3.87
2.42475,552.89,3.87
2.42488,553.34,3.87
2.425,553.63,3.87
2.42512,553.76,3.88
2.42525,553.77,3.88
2.42537,553.68,3.88
2.4255,553.53,3.88
2.42562,553.4,3.88
2.42575,553.24,3.88
2.42587,553.16,3.88
2.426,553.18,3.88
2.42613,553.35,3.88
2.42625,553.69,3.88
2.42637,554.21,3.88
2.4265,554.88,3.88
2.42663,555.7,3.88
2.42675,556.59,3.88
2.42687,557.49,3.89
2.427,558.38,3.89
2.42712,559.23,3.89
2.42725,559.99,3.89
2.42737,560.68,3.89
2.4275,561.27,3.89
2.42762,561.75,3.89
2.42775,562.13,3.89
2.42788,562.42,3.89
2.428,562.59,3.89
2.42812,562.65,3.89
2.42825,562.62,3.89
2.42838,562.49,3.89
2.4285,562.27,3.89
2.42862,561.95,3.89
2.42875,561.51,3.89
2.42887,560.95,3.89
2.429,560.29,3.89
2.42912,559.55,3.89
2.42925,558.76,3.89
2.42937,557.95,3.9
2.4295,557.21,3.9
2.42963,556.6,3.9
2.42975,556.19,3.9
2.42987,556,3.9
2.43,556.09,3.9
2.43012,556.47,3.9
2.43025,557.12,3.9
2.43037,558,3.9
2.4305,559.11,3.9
2.43062,560.35,3.9
2.43075,561.65,3.9
2.43087,562.95,3.9
2.431,564.19,3.9
2.43112,565.32,3.9
2.43125,566.28,3.9
2.43138,567.06,3.9
2.4315,567.67,3.9
2.43162,568.08,3.9
2.43175,568.32,3.9
2.43187,568.44,3.9
2.432,568.42,3.9
2.43212,568.27,3.9
2.43225,568,3.9
2.43237,567.69,3.9
2.4325,567.32,3.9
2.43262,566.89,3.9
2.43275,566.4,3.9
2.43287,565.84,3.9
2.433,565.17,3.9
2.43313,564.43,3.9
2.43325,563.62,3.9
2.43337,562.78,3.9
2.4335,561.93,3.9
2.43362,561.13,3.9
2.43375,560.49,3.9
2.43387,560.03,3.9
2.434,559.81,3.9
2.43412,559.77,3.9
2.43425,559.93,3.9
2.43438,560.19,3.9
2.4345,560.53,3.9
2.43462,560.86,3.9
2.43475,561.12,3.9
2.43488,561.24,3.9
2.435,561.23,3.9
2.43512,561.06,3.9
2.43525,560.8,3.9
2.43537,560.46,3.9
2.4355,560.09,3.9
2.43562,559.75,3.9
2.43575,559.5,3.9
2.43587,559.39,3.9
2.436,559.44,3.9
2.43613,559.6,3.9
2.43625,559.9,3.9
2.43637,560.27,3.9
2.4365,560.69,3.9
2.43663,561.17,3.9
2.43675,561.65,3.89
2.43687,562.17,3.89
2.437,562.73,3.89
2.43712,563.31,3.89
2.43725,563.97,3.89
2.43737,564.67,3.89
2.4375,565.44,3.89
2.43762,566.26,3.89
2.43775,567.09,3.89
2.43788,567.92,3.89
2.438,568.73,3.89
2.43812,569.48,3.89
2.43825,570.13,3.89
2.43837,570.67,3.89
2.4385,571.07,3.89
2.43862,571.36,3.89
2.43875,571.49,3.89
2.43887,571.54,3.89
2.439,571.48,3.89
2.43912,571.36,3.89
2.43925,571.16,3.89
2.43937,570.95,3.89
2.4395,570.72,3.89
2.43963,570.5,3.89
2.43975,570.28,3.89
2.43987,570.09,3.89
2.44,569.91,3.89
2.44012,569.76,3.89
2.44025,569.61,3.89
2.44037,569.48,3.89
2.4405,569.34,3.88
2.44062,569.21,3.88
2.44075,569.12,3.88
2.44088,569.06,3.88
2.441,569.07,3.88
2.44112,569.14,3.88
2.44125,569.34,3.88
2.44138,569.65,3.88
2.4415,570.06,3.88
2.44162,570.56,3.88
2.44175,571.13,3.88
2.44187,571.75,3.88
2.442,572.37,3.88
2.44212,572.95,3.88
2.44225,573.29,3.88
2.44237,573.5,3.88
2.4425,573.37,3.88
2.44263,572.88,3.88
2.44275,571.98,3.88
2.44287,570.62,3.88
2.443,568.74,3.88
2.44313,566.4,3.88
2.44325,563.68,3.88
2.44337,560.67,3.88
2.4435,557.48,3.88
2.44362,554.3,3.88
2.44375,551.28,3.88
2.44387,548.57,3.88
2.444,546.21,3.88
2.44412,544.42,3.88
2.44425,543.14,3.88
2.44438,542.46,3.88
2.4445,542.39,3.88
2.44462,543.06,3.88
2.44475,544.35,3.88
2.44488,546.32,3.88
2.445,548.83,3.88
2.44512,551.89,3.88
2.44525,555.43,3.88
2.44537,559.22,3.88
2.4455,563.12,3.88
2.44562,566.92,3.88
2.44575,570.52,3.88
2.44587,573.75,3.88
2.446,576.66,3.87
2.44613,579.08,3.87
2.44625,581.12,3.87
2.44637,582.75,3.87
2.4465,584,3.87
2.44662,584.87,3.87
2.44675,585.48,3.87
2.44687,585.81,3.87
2.447,585.9,3.87
2.44712,585.84,3.87
2.44725,585.64,3.87
2.44737,585.38,3.87
2.4475,585.13,3.87
2.44762,584.92,3.87
2.44775,584.79,3.87
2.44788,584.78,3.87
2.448,584.91,3.87
2.44812,585.14,3.87
2.44825,585.49,3.87
2.44837,585.92,3.87
2.4485,586.38,3.87
2.44862,586.83,3.88
2.44875,587.25,3.88
2.44887,587.55,3.88
2.449,587.73,3.88
2.44912,587.77,3.88
2.44925,587.63,3.88
2.44937,587.37,3.88
2.4495,586.99,3.88
2.44963,586.55,3.88
2.44975,586.1,3.88
2.44987,585.67,3.88
2.45,585.29,3.88
2.45012,584.94,3.88
2.45025,584.61,3.88
2.45037,584.26,3.88
2.4505,583.85,3.88
2.45062,583.37,3.88
2.45075,582.79,3.88
2.45088,582.15,3.88
2.451,581.44,3.88
2.45112,580.77,3.88
2.45125,580.13,3.88
2.45138,579.58,3.88
2.4515,579.11,3.88
2.45162,578.74,3.88
2.45175,578.42,3.88
2.45187,578.14,3.88
2.452,577.84,3.88
2.45212,577.45,3.88
2.45225,576.99,3.88
2.45237,576.42,3.88
2.4525,575.81,3.88
2.45263,575.22,3.88
2.45275,574.68,3.88
2.45287,574.27,3.88
2.453,574.04,3.88
2.45312,574.08,3.88
2.45325,574.39,3.88
2.45337,574.95,3.88
2.4535,575.78,3.88
2.45362,576.86,3.88
2.45375,578.13,3.89
2.45387,579.58,3.89
2.454,581.09,3.89
2.45412,582.64,3.89
2.45425,584.15,3.89
2.45438,585.52,3.89
2.4545,586.69,3.89
2.45462,587.64,3.89
2.45475,588.35,3.89
2.45487,588.86,3.89
2.455,589.16,3.89
2.45512,589.38,3.89
2.45525,589.53,3.89
2.45537,589.69,3.89
2.4555,589.92,3.89
2.45563,590.25,3.89
2.45575,590.67,3.89
2.45587,591.19,3.89
2.456,591.8,3.89
2.45613,592.47,3.89
2.45625,593.18,3.89
2.45637,593.91,3.89
2.4565,594.58,3.89
2.45662,595.21,3.89
2.45675,595.74,3.89
2.45687,596.17,3.9
2.457,596.5,3.9
2.45712,596.7,3.9
2.45725,596.84,3.9
2.45738,596.91,3.9
2.4575,596.93,3.9
2.45762,596.97,3.9
2.45775,597.04,3.9
2.45788,597.13,3.9
2.458,597.28,3.9
2.45812,597.48,3.9
2.45825,597.7,3.9
2.45837,597.91,3.9
2.4585,598.16,3.9
2.45862,598.35,3.9
2.45875,598.52,3.9
2.45887,598.64,3.9
2.459,598.69,3.9
2.45913,598.74,3.9
2.45925,598.71,3.9
2.45937,598.66,3.9
2.4595,598.57,3.9
2.45963,598.45,3.91
2.45975,598.34,3.91
2.45987,598.26,3.91
2.46,598.22,3.91
2.46012,598.18,3.91
2.46025,598.18,3.91
2.46037,598.18,3.91
2.4605,598.18,3.91
2.46062,598.14,3.91
2.46075,598.01,3.91
2.46088,597.79,3.91
2.461,597.45,3.91
2.46112,596.97,3.91
2.46125,596.37,3.91
2.46137,595.71,3.91
2.4615,595.01,3.91
2.46162,594.32,3.91
2.46175,593.73,3.91
2.46187,593.27,3.91
2.462,592.99,3.91
2.46212,592.88,3.91
2.46225,592.94,3.91
2.46237,593.13,3.92
2.4625,593.42,3.92
2.46263,593.78,3.92
2.46275,594.19,3.92
2.46287,594.62,3.92
2.463,595.05,3.92
2.46312,595.51,3.92
2.46325,595.99,3.92
2.46337,596.46,3.92
2.4635,596.96,3.92
2.46362,597.47,3.92
2.46375,598.04,3.92
2.46387,598.64,3.92
2.464,599.3,3.92
2.46412,600.05,3.92
2.46425,600.88,3.92
2.46438,601.76,3.92
2.4645,602.7,3.92
2.46462,603.66,3.92
2.46475,604.64,3.92
2.46487,605.61,3.94
2.465,606.55,3.94
2.46512,607.43,3.94
2.46525,608.24,3.94
2.46537,608.96,3.94
2.4655,609.63,3.94
2.46563,610.22,3.94
2.46575,610.74,3.94
2.46587,611.19,3.94
2.466,611.62,3.94
2.46613,612,3.94
2.46625,612.4,3.94
2.46637,612.8,3.94
2.4665,613.2,3.94
2.46662,613.58,3.94
2.46675,613.95,3.94
2.46687,614.28,3.94
2.467,614.56,3.94
2.46712,614.75,3.94
2.46725,614.88,3.95
2.46738,614.89,3.95
2.4675,614.83,3.95
2.46762,614.68,3.95
2.46775,614.5,3.95
2.46788,614.28,3.95
2.468,614.05,3.95
2.46812,613.85,3.95
2.46825,613.7,3.95
2.46837,613.61,3.95
2.4685,613.61,3.95
2.46862,613.71,3.95
2.46875,613.95,3.95
2.46887,614.28,3.95
2.469,614.67,3.95
2.46913,615.1,3.95
2.46925,615.54,3.95
2.46937,615.96,3.96
2.4695,616.31,3.96
2.46962,616.63,3.96
2.46975,616.89,3.96
2.46987,617.12,3.96
2.47,617.31,3.96
2.47012,617.51,3.96
2.47025,617.76,3.96
2.47037,618.08,3.96
2.4705,618.48,3.96
2.47062,618.97,3.96
2.47075,619.51,3.96
2.47088,620.14,3.96
2.471,620.79,3.96
2.47112,621.4,3.97
2.47125,621.97,3.97
2.47137,622.4,3.97
2.4715,622.68,3.97
2.47162,622.78,3.97
2.47175,622.7,3.97
2.47187,622.5,3.97
2.472,622.21,3.97
2.47213,621.89,3.97
2.47225,621.61,3.97
2.47237,621.38,3.97
2.4725,621.3,3.97
2.47263,621.37,3.97
2.47275,621.65,3.98
2.47287,622.1,3.98
2.473,622.73,3.98
2.47312,623.47,3.98
2.47325,624.26,3.98
2.47337,625.07,3.98
2.4735,625.78,3.98
2.47362,626.37,3.98
2.47375,626.81,3.98
2.47388,627.05,3.98
2.474,627.14,3.98
2.47412,627.08,3.99
2.47425,626.96,3.99
2.47438,626.79,3.99
2.4745,626.67,3.99
2.47462,626.61,3.99
2.47475,626.65,3.99
2.47487,626.81,3.99
2.475,627.08,3.99
2.47512,627.43,3.99
2.47525,627.83,3.99
2.47537,628.26,3.99
2.4755,628.65,4
2.47563,628.97,4
2.47575,629.16,4
2.47587,629.22,4
2.476,629.09,4
2.47613,628.83,4
2.47625,628.46,4
2.47637,628.01,4
2.4765,627.52,4
2.47662,627.02,4.02
2.47675,626.54,4.02
2.47687,626.1,4.02
2.477,625.7,4.02
2.47712,625.37,4.02
2.47725,625.11,4.02
2.47738,624.95,4.02
2.4775,624.89,4.02
2.47762,624.95,4.02
2.47775,625.18,4.02
2.47787,625.56,4.03
2.478,626.08,4.03
2.47812,626.77,4.03
2.47825,627.57,4.03
2.47837,628.4,4.03
2.4785,629.23,4.03
2.47862,630.03,4.03
2.47875,630.74,4.03
2.47887,631.37,4.03
2.479,631.91,4.04
2.47913,632.38,4.04
2.47925,632.79,4.04
2.47937,633.18,4.04
2.4795,633.55,4.04
2.47962,633.92,4.04
2.47975,634.33,4.04
2.47987,634.76,4.04
2.48,635.21,4.05
2.48012,635.7,4.05
2.48025,636.23,4.05
2.48038,636.8,4.05
2.4805,637.38,4.05
2.48062,638.02,4.05
2.48075,638.66,4.05
2.48088,639.28,4.05
2.481,639.86,4.06
2.48112,640.37,4.06
2.48125,640.79,4.06
2.48137,641.13,4.06
2.4815,641.34,4.06
2.48162,641.44,4.06
2.48175,641.4,4.06
2.48187,641.23,4.06
2.482,640.95,4.07
