| lambda |  Flux   |  F_Er   |F_Norm_Er|
| double | double  | double  | double  |
| micron |   Jy    |   Jy    |    Jy   |
  2.35950 483.91000   4.41000   4.42000 
  2.35962 483.21000   4.41000   4.42000 
  2.35975 482.56000   4.40000   4.40000 
  2.35987 481.94000   4.40000   4.40000 
  2.36000 481.42000   4.40000   4.40000 
  2.36012 481.02000   4.40000   4.40000 
  2.36025 480.80000   4.39000   4.39000 
  2.36037 480.74000   4.39000   4.39000 
  2.36050 480.85000   4.39000   4.39000 
  2.36063 481.16000   4.39000   4.39000 
  2.36075 481.67000   4.38000   4.38000 
  2.36087 482.37000   4.38000   4.38000 
  2.36100 483.24000   4.38000   4.38000 
  2.36112 484.27000   4.38000   4.38000 
  2.36125 485.39000   4.37000   4.37000 
  2.36137 486.61000   4.37000   4.37000 
  2.36150 487.87000   4.37000   4.37000 
  2.36162 489.14000   4.35000   4.36000 
  2.36175 490.41000   4.35000   4.36000 
  2.36187 491.63000   4.35000   4.36000 
  2.36200 492.79000   4.35000   4.36000 
  2.36212 493.83000   4.34000   4.35000 
  2.36225 494.74000   4.34000   4.35000 
  2.36238 495.49000   4.34000   4.35000 
  2.36250 496.05000   4.33000   4.34000 
  2.36262 496.38000   4.33000   4.34000 
  2.36275 496.54000   4.33000   4.34000 
  2.36287 496.52000   4.32000   4.33000 
  2.36300 496.40000   4.32000   4.33000 
  2.36312 496.14000   4.32000   4.33000 
  2.36325 495.83000   4.32000   4.33000 
  2.36337 495.47000   4.31000   4.31000 
  2.36350 495.09000   4.31000   4.31000 
  2.36363 494.70000   4.31000   4.31000 
  2.36375 494.29000   4.30000   4.30000 
  2.36387 493.88000   4.30000   4.30000 
  2.36400 493.50000   4.30000   4.30000 
  2.36413 493.10000   4.29000   4.29000 
  2.36425 492.74000   4.29000   4.29000 
  2.36437 492.44000   4.29000   4.29000 
  2.36450 492.20000   4.28000   4.28000 
  2.36462 492.07000   4.28000   4.28000 
  2.36475 492.06000   4.28000   4.28000 
  2.36487 492.18000   4.26000   4.27000 
  2.36500 492.41000   4.26000   4.27000 
  2.36512 492.71000   4.26000   4.27000 
  2.36525 493.06000   4.25000   4.26000 
  2.36538 493.40000   4.25000   4.26000 
  2.36550 493.69000   4.25000   4.26000 
  2.36562 493.92000   4.25000   4.26000 
  2.36575 494.10000   4.24000   4.25000 
  2.36588 494.26000   4.24000   4.25000 
  2.36600 494.38000   4.23000   4.23000 
  2.36612 494.55000   4.23000   4.23000 
  2.36625 494.78000   4.23000   4.23000 
  2.36637 495.10000   4.22000   4.22000 
  2.36650 495.58000   4.22000   4.22000 
  2.36662 496.18000   4.22000   4.22000 
  2.36675 496.91000   4.21000   4.21000 
  2.36687 497.74000   4.21000   4.21000 
  2.36700 498.66000   4.21000   4.21000 
  2.36713 499.54000   4.20000   4.20000 
  2.36725 500.34000   4.20000   4.20000 
  2.36737 501.05000   4.20000   4.20000 
  2.36750 501.61000   4.18000   4.19000 
  2.36762 502.04000   4.18000   4.19000 
  2.36775 502.38000   4.18000   4.19000 
  2.36787 502.70000   4.17000   4.18000 
  2.36800 503.10000   4.17000   4.18000 
  2.36812 503.58000   4.16000   4.17000 
  2.36825 504.19000   4.16000   4.17000 
  2.36837 504.97000   4.16000   4.17000 
  2.36850 505.92000   4.15000   4.16000 
  2.36862 506.96000   4.15000   4.16000 
  2.36875 508.08000   4.15000   4.16000 
  2.36888 509.15000   4.14000   4.14000 
  2.36900 510.11000   4.14000   4.14000 
  2.36912 510.88000   4.13000   4.13000 
  2.36925 511.42000   4.13000   4.13000 
  2.36937 511.71000   4.13000   4.13000 
  2.36950 511.80000   4.12000   4.12000 
  2.36962 511.68000   4.12000   4.12000 
  2.36975 511.47000   4.12000   4.12000 
  2.36987 511.18000   4.11000   4.11000 
  2.37000 510.85000   4.11000   4.11000 
  2.37012 510.53000   4.09000   4.10000 
  2.37025 510.21000   4.09000   4.10000 
  2.37037 509.85000   4.09000   4.10000 
  2.37050 509.48000   4.08000   4.09000 
  2.37063 509.06000   4.08000   4.09000 
  2.37075 508.63000   4.07000   4.08000 
  2.37087 508.21000   4.07000   4.08000 
  2.37100 507.84000   4.07000   4.08000 
  2.37112 507.51000   4.06000   4.07000 
  2.37125 507.31000   4.06000   4.07000 
  2.37137 507.19000   4.05000   4.05000 
  2.37150 507.24000   4.05000   4.05000 
  2.37162 507.36000   4.05000   4.05000 
  2.37175 507.57000   4.04000   4.04000 
  2.37188 507.77000   4.04000   4.04000 
  2.37200 507.96000   4.03000   4.03000 
  2.37212 508.05000   4.03000   4.03000 
  2.37225 508.05000   4.03000   4.03000 
  2.37238 507.94000   4.02000   4.02000 
  2.37250 507.75000   4.02000   4.02000 
  2.37262 507.51000   4.00000   4.01000 
  2.37275 507.25000   4.00000   4.01000 
  2.37287 507.10000   4.00000   4.01000 
  2.37300 507.04000   3.99000   4.00000 
  2.37312 507.07000   3.99000   4.00000 
  2.37325 507.23000   3.98000   3.99000 
  2.37337 507.50000   3.98000   3.99000 
  2.37350 507.83000   3.98000   3.99000 
  2.37363 508.22000   3.97000   3.98000 
  2.37375 508.66000   3.97000   3.98000 
  2.37387 509.07000   3.96000   3.96000 
  2.37400 509.45000   3.96000   3.96000 
  2.37413 509.75000   3.95000   3.95000 
  2.37425 509.97000   3.95000   3.95000 
  2.37437 510.07000   3.95000   3.95000 
  2.37450 510.00000   3.94000   3.94000 
  2.37462 509.75000   3.94000   3.94000 
  2.37475 509.37000   3.92000   3.93000 
  2.37487 508.85000   3.92000   3.93000 
  2.37500 508.21000   3.92000   3.93000 
  2.37512 507.56000   3.91000   3.92000 
  2.37525 506.92000   3.91000   3.92000 
  2.37538 506.39000   3.90000   3.91000 
  2.37550 506.01000   3.90000   3.91000 
  2.37562 505.78000   3.89000   3.90000 
  2.37575 505.71000   3.89000   3.90000 
  2.37587 505.86000   3.89000   3.90000 
  2.37600 506.15000   3.88000   3.88000 
  2.37612 506.55000   3.88000   3.88000 
  2.37625 507.04000   3.87000   3.87000 
  2.37637 507.55000   3.87000   3.87000 
  2.37650 508.08000   3.86000   3.86000 
  2.37662 508.53000   3.86000   3.86000 
  2.37675 508.94000   3.86000   3.86000 
  2.37687 509.31000   3.85000   3.85000 
  2.37700 509.59000   3.85000   3.85000 
  2.37713 509.77000   3.83000   3.84000 
  2.37725 509.85000   3.83000   3.84000 
  2.37737 509.77000   3.83000   3.84000 
  2.37750 509.52000   3.82000   3.83000 
  2.37762 509.13000   3.82000   3.83000 
  2.37775 508.56000   3.81000   3.82000 
  2.37787 507.84000   3.81000   3.82000 
  2.37800 507.05000   3.80000   3.81000 
  2.37812 506.22000   3.80000   3.81000 
  2.37825 505.48000   3.80000   3.81000 
  2.37837 504.92000   3.79000   3.79000 
  2.37850 504.67000   3.79000   3.79000 
  2.37862 504.82000   3.78000   3.78000 
  2.37875 505.40000   3.78000   3.78000 
  2.37888 506.35000   3.78000   3.78000 
  2.37900 507.64000   3.77000   3.77000 
  2.37912 509.09000   3.77000   3.77000 
  2.37925 510.53000   3.75000   3.76000 
  2.37937 511.78000   3.75000   3.76000 
  2.37950 512.66000   3.75000   3.76000 
  2.37962 513.11000   3.74000   3.75000 
  2.37975 513.13000   3.74000   3.75000 
  2.37987 512.78000   3.73000   3.74000 
  2.38000 512.16000   3.73000   3.74000 
  2.38013 511.36000   3.73000   3.74000 
  2.38025 510.50000   3.72000   3.73000 
  2.38037 509.66000   3.72000   3.73000 
  2.38050 508.95000   3.71000   3.72000 
  2.38063 508.38000   3.71000   3.72000 
  2.38075 507.98000   3.71000   3.72000 
  2.38087 507.78000   3.70000   3.70000 
  2.38100 507.76000   3.70000   3.70000 
  2.38112 507.91000   3.69000   3.69000 
  2.38125 508.21000   3.69000   3.69000 
  2.38137 508.63000   3.69000   3.69000 
  2.38150 509.08000   3.68000   3.68000 
  2.38162 509.63000   3.68000   3.68000 
  2.38175 510.14000   3.68000   3.68000 
  2.38188 510.61000   3.66000   3.67000 
  2.38200 511.03000   3.66000   3.67000 
  2.38212 511.38000   3.65000   3.66000 
  2.38225 511.63000   3.65000   3.66000 
  2.38238 511.81000   3.65000   3.66000 
  2.38250 511.89000   3.64000   3.65000 
  2.38262 511.94000   3.64000   3.65000 
  2.38275 511.91000   3.64000   3.65000 
  2.38287 511.83000   3.63000   3.64000 
  2.38300 511.66000   3.63000   3.64000 
  2.38312 511.42000   3.63000   3.64000 
  2.38325 511.12000   3.62000   3.63000 
  2.38337 510.69000   3.62000   3.63000 
  2.38350 510.18000   3.62000   3.63000 
  2.38363 509.59000   3.61000   3.61000 
  2.38375 508.96000   3.61000   3.61000 
  2.38387 508.31000   3.61000   3.61000 
  2.38400 507.71000   3.60000   3.60000 
  2.38412 507.23000   3.60000   3.60000 
  2.38425 506.83000   3.60000   3.60000 
  2.38437 506.54000   3.59000   3.59000 
  2.38450 506.34000   3.59000   3.59000 
  2.38462 506.17000   3.59000   3.59000 
  2.38475 506.04000   3.57000   3.58000 
  2.38487 505.89000   3.57000   3.58000 
  2.38500 505.71000   3.57000   3.58000 
  2.38512 505.51000   3.56000   3.57000 
  2.38525 505.27000   3.56000   3.57000 
  2.38538 505.08000   3.56000   3.57000 
  2.38550 504.97000   3.55000   3.56000 
  2.38562 504.96000   3.55000   3.56000 
  2.38575 505.15000   3.55000   3.56000 
  2.38587 505.48000   3.55000   3.56000 
  2.38600 505.98000   3.54000   3.55000 
  2.38612 506.65000   3.54000   3.55000 
  2.38625 507.47000   3.54000   3.55000 
  2.38637 508.38000   3.53000   3.53000 
  2.38650 509.35000   3.53000   3.53000 
  2.38662 510.35000   3.53000   3.53000 
  2.38675 511.32000   3.53000   3.53000 
  2.38687 512.23000   3.52000   3.52000 
  2.38700 513.02000   3.52000   3.52000 
  2.38713 513.69000   3.52000   3.52000 
  2.38725 514.16000   3.52000   3.52000 
  2.38737 514.46000   3.51000   3.51000 
  2.38750 514.55000   3.51000   3.51000 
  2.38762 514.41000   3.51000   3.51000 
  2.38775 514.06000   3.51000   3.51000 
  2.38787 513.46000   3.51000   3.51000 
  2.38800 512.69000   3.49000   3.50000 
  2.38812 511.74000   3.49000   3.50000 
  2.38825 510.69000   3.49000   3.50000 
  2.38838 509.57000   3.49000   3.50000 
  2.38850 508.43000   3.48000   3.49000 
  2.38862 507.31000   3.48000   3.49000 
  2.38875 506.31000   3.48000   3.49000 
  2.38888 505.46000   3.48000   3.49000 
  2.38900 504.80000   3.48000   3.49000 
  2.38912 504.36000   3.47000   3.48000 
  2.38925 504.10000   3.47000   3.48000 
  2.38937 504.08000   3.47000   3.48000 
  2.38950 504.21000   3.47000   3.48000 
  2.38962 504.54000   3.47000   3.48000 
  2.38975 504.94000   3.47000   3.48000 
  2.38987 505.42000   3.46000   3.47000 
  2.39000 505.88000   3.46000   3.47000 
  2.39013 506.30000   3.46000   3.47000 
  2.39025 506.58000   3.46000   3.47000 
  2.39037 506.66000   3.46000   3.47000 
  2.39050 506.50000   3.46000   3.47000 
  2.39062 506.07000   3.46000   3.47000 
  2.39075 505.43000   3.45000   3.46000 
  2.39087 504.57000   3.45000   3.46000 
  2.39100 503.62000   3.45000   3.46000 
  2.39112 502.66000   3.45000   3.46000 
  2.39125 501.83000   3.45000   3.46000 
  2.39137 501.21000   3.45000   3.46000 
  2.39150 500.84000   3.45000   3.46000 
  2.39162 500.74000   3.45000   3.46000 
  2.39175 500.92000   3.45000   3.46000 
  2.39188 501.30000   3.45000   3.46000 
  2.39200 501.86000   3.44000   3.44000 
  2.39212 502.49000   3.44000   3.44000 
  2.39225 503.19000   3.44000   3.44000 
  2.39237 503.95000   3.44000   3.44000 
  2.39250 504.73000   3.44000   3.44000 
  2.39262 505.59000   3.44000   3.44000 
  2.39275 506.48000   3.44000   3.44000 
  2.39287 507.45000   3.44000   3.44000 
  2.39300 508.45000   3.44000   3.44000 
  2.39312 509.43000   3.44000   3.44000 
  2.39325 510.37000   3.44000   3.44000 
  2.39337 511.11000   3.44000   3.44000 
  2.39350 511.61000   3.44000   3.44000 
  2.39363 511.82000   3.44000   3.44000 
  2.39375 511.70000   3.44000   3.44000 
  2.39387 511.32000   3.44000   3.44000 
  2.39400 510.75000   3.44000   3.44000 
  2.39412 510.07000   3.44000   3.44000 
  2.39425 509.39000   3.44000   3.44000 
  2.39437 508.78000   3.44000   3.44000 
  2.39450 508.28000   3.44000   3.44000 
  2.39462 507.96000   3.44000   3.44000 
  2.39475 507.84000   3.44000   3.44000 
  2.39488 507.95000   3.44000   3.44000 
  2.39500 508.28000   3.44000   3.44000 
  2.39512 508.80000   3.44000   3.44000 
  2.39525 509.52000   3.44000   3.44000 
  2.39538 510.46000   3.44000   3.44000 
  2.39550 511.54000   3.44000   3.44000 
  2.39562 512.74000   3.44000   3.44000 
  2.39575 513.97000   3.44000   3.44000 
  2.39587 515.15000   3.44000   3.44000 
  2.39600 516.20000   3.44000   3.44000 
  2.39612 516.96000   3.44000   3.44000 
  2.39625 517.43000   3.44000   3.44000 
  2.39637 517.53000   3.44000   3.44000 
  2.39650 517.27000   3.44000   3.44000 
  2.39663 516.68000   3.44000   3.44000 
  2.39675 515.80000   3.44000   3.44000 
  2.39687 514.69000   3.44000   3.44000 
  2.39700 513.49000   3.44000   3.44000 
  2.39713 512.25000   3.44000   3.44000 
  2.39725 511.13000   3.44000   3.44000 
  2.39737 510.19000   3.44000   3.44000 
  2.39750 509.56000   3.45000   3.46000 
  2.39762 509.34000   3.45000   3.46000 
  2.39775 509.57000   3.45000   3.46000 
  2.39787 510.24000   3.45000   3.46000 
  2.39800 511.23000   3.45000   3.46000 
  2.39812 512.49000   3.45000   3.46000 
  2.39825 513.82000   3.45000   3.46000 
  2.39838 515.04000   3.45000   3.46000 
  2.39850 516.05000   3.45000   3.46000 
  2.39862 516.75000   3.46000   3.47000 
  2.39875 517.15000   3.46000   3.47000 
  2.39887 517.27000   3.46000   3.47000 
  2.39900 517.17000   3.46000   3.47000 
  2.39912 516.93000   3.46000   3.47000 
  2.39925 516.63000   3.46000   3.47000 
  2.39937 516.27000   3.46000   3.47000 
  2.39950 515.93000   3.46000   3.47000 
  2.39962 515.61000   3.47000   3.48000 
  2.39975 515.30000   3.47000   3.48000 
  2.39987 515.03000   3.47000   3.48000 
  2.40000 514.74000   3.47000   3.48000 
  2.40013 514.43000   3.47000   3.48000 
  2.40025 514.15000   3.47000   3.48000 
  2.40037 513.91000   3.47000   3.48000 
  2.40050 513.75000   3.48000   3.49000 
  2.40062 513.78000   3.48000   3.49000 
  2.40075 513.96000   3.48000   3.49000 
  2.40087 514.33000   3.48000   3.49000 
  2.40100 514.89000   3.48000   3.49000 
  2.40112 515.59000   3.48000   3.49000 
  2.40125 516.42000   3.49000   3.50000 
  2.40137 517.32000   3.49000   3.50000 
  2.40150 518.27000   3.49000   3.50000 
  2.40162 519.19000   3.49000   3.50000 
  2.40175 520.10000   3.49000   3.50000 
  2.40188 520.94000   3.49000   3.50000 
  2.40200 521.69000   3.51000   3.51000 
  2.40212 522.38000   3.51000   3.51000 
  2.40225 522.97000   3.51000   3.51000 
  2.40237 523.48000   3.51000   3.51000 
  2.40250 523.91000   3.51000   3.51000 
  2.40262 524.25000   3.52000   3.52000 
  2.40275 524.56000   3.52000   3.52000 
  2.40287 524.82000   3.52000   3.52000 
  2.40300 525.02000   3.52000   3.52000 
  2.40313 525.21000   3.52000   3.52000 
  2.40325 525.35000   3.53000   3.54000 
  2.40337 525.44000   3.53000   3.54000 
  2.40350 525.48000   3.53000   3.54000 
  2.40363 525.44000   3.53000   3.54000 
  2.40375 525.36000   3.53000   3.54000 
  2.40387 525.23000   3.54000   3.55000 
  2.40400 525.05000   3.54000   3.55000 
  2.40412 524.89000   3.54000   3.55000 
  2.40425 524.82000   3.54000   3.55000 
  2.40437 524.85000   3.54000   3.55000 
  2.40450 525.04000   3.55000   3.56000 
  2.40462 525.47000   3.55000   3.56000 
  2.40475 526.16000   3.55000   3.56000 
  2.40488 527.09000   3.55000   3.56000 
  2.40500 528.24000   3.55000   3.56000 
  2.40512 529.53000   3.56000   3.57000 
  2.40525 530.81000   3.56000   3.57000 
  2.40538 532.00000   3.56000   3.57000 
  2.40550 533.00000   3.56000   3.57000 
  2.40562 533.74000   3.56000   3.57000 
  2.40575 534.20000   3.57000   3.58000 
  2.40587 534.42000   3.57000   3.58000 
  2.40600 534.41000   3.57000   3.58000 
  2.40612 534.19000   3.57000   3.58000 
  2.40625 533.86000   3.59000   3.59000 
  2.40637 533.46000   3.59000   3.59000 
  2.40650 533.02000   3.59000   3.59000 
  2.40663 532.56000   3.59000   3.59000 
  2.40675 532.11000   3.59000   3.59000 
  2.40687 531.69000   3.60000   3.60000 
  2.40700 531.30000   3.60000   3.60000 
  2.40712 530.97000   3.60000   3.60000 
  2.40725 530.71000   3.60000   3.60000 
  2.40737 530.54000   3.61000   3.61000 
  2.40750 530.43000   3.61000   3.61000 
  2.40762 530.41000   3.61000   3.61000 
  2.40775 530.47000   3.61000   3.61000 
  2.40787 530.57000   3.61000   3.61000 
  2.40800 530.69000   3.62000   3.63000 
  2.40812 530.81000   3.62000   3.63000 
  2.40825 530.95000   3.62000   3.63000 
  2.40838 531.08000   3.62000   3.63000 
  2.40850 531.23000   3.63000   3.64000 
  2.40862 531.41000   3.63000   3.64000 
  2.40875 531.66000   3.63000   3.64000 
  2.40887 532.00000   3.63000   3.64000 
  2.40900 532.39000   3.63000   3.64000 
  2.40912 532.83000   3.64000   3.65000 
  2.40925 533.31000   3.64000   3.65000 
  2.40937 533.76000   3.64000   3.65000 
  2.40950 534.15000   3.64000   3.65000 
  2.40963 534.46000   3.65000   3.66000 
  2.40975 534.66000   3.65000   3.66000 
  2.40987 534.77000   3.65000   3.66000 
  2.41000 534.90000   3.65000   3.66000 
  2.41013 535.04000   3.65000   3.66000 
  2.41025 535.24000   3.66000   3.67000 
  2.41037 535.58000   3.66000   3.67000 
  2.41050 536.06000   3.66000   3.67000 
  2.41062 536.67000   3.66000   3.67000 
  2.41075 537.39000   3.68000   3.68000 
  2.41087 538.17000   3.68000   3.68000 
  2.41100 538.98000   3.68000   3.68000 
  2.41112 539.78000   3.68000   3.68000 
  2.41125 540.45000   3.68000   3.68000 
  2.41138 541.00000   3.69000   3.69000 
  2.41150 541.37000   3.69000   3.69000 
  2.41162 541.49000   3.69000   3.69000 
  2.41175 541.33000   3.69000   3.69000 
  2.41188 540.84000   3.69000   3.69000 
  2.41200 540.04000   3.70000   3.70000 
  2.41212 538.95000   3.70000   3.70000 
  2.41225 537.65000   3.70000   3.70000 
  2.41237 536.25000   3.70000   3.70000 
  2.41250 534.84000   3.70000   3.70000 
  2.41262 533.57000   3.71000   3.72000 
  2.41275 532.56000   3.71000   3.72000 
  2.41287 531.85000   3.71000   3.72000 
  2.41300 531.47000   3.71000   3.72000 
  2.41313 531.39000   3.72000   3.73000 
  2.41325 531.59000   3.72000   3.73000 
  2.41337 532.02000   3.72000   3.73000 
  2.41350 532.57000   3.72000   3.73000 
  2.41363 533.22000   3.72000   3.73000 
  2.41375 533.89000   3.72000   3.73000 
  2.41387 534.53000   3.73000   3.74000 
  2.41400 535.14000   3.73000   3.74000 
  2.41412 535.68000   3.73000   3.74000 
  2.41425 536.16000   3.73000   3.74000 
  2.41437 536.58000   3.73000   3.74000 
  2.41450 536.96000   3.74000   3.75000 
  2.41462 537.34000   3.74000   3.75000 
  2.41475 537.73000   3.74000   3.75000 
  2.41488 538.13000   3.74000   3.75000 
  2.41500 538.56000   3.74000   3.75000 
  2.41512 539.00000   3.75000   3.76000 
  2.41525 539.43000   3.75000   3.76000 
  2.41537 539.87000   3.75000   3.76000 
  2.41550 540.24000   3.75000   3.76000 
  2.41562 540.57000   3.75000   3.76000 
  2.41575 540.84000   3.75000   3.76000 
  2.41587 541.05000   3.77000   3.77000 
  2.41600 541.19000   3.77000   3.77000 
  2.41612 541.32000   3.77000   3.77000 
  2.41625 541.48000   3.77000   3.77000 
  2.41637 541.66000   3.77000   3.77000 
  2.41650 541.92000   3.78000   3.78000 
  2.41663 542.30000   3.78000   3.78000 
  2.41675 542.78000   3.78000   3.78000 
  2.41687 543.36000   3.78000   3.78000 
  2.41700 544.03000   3.78000   3.78000 
  2.41712 544.74000   3.78000   3.78000 
  2.41725 545.43000   3.79000   3.80000 
  2.41737 546.07000   3.79000   3.80000 
  2.41750 546.66000   3.79000   3.80000 
  2.41762 547.14000   3.79000   3.80000 
  2.41775 547.54000   3.79000   3.80000 
  2.41787 547.83000   3.79000   3.80000 
  2.41800 548.05000   3.80000   3.81000 
  2.41812 548.14000   3.80000   3.81000 
  2.41825 548.15000   3.80000   3.81000 
  2.41838 548.05000   3.80000   3.81000 
  2.41850 547.85000   3.80000   3.81000 
  2.41862 547.56000   3.80000   3.81000 
  2.41875 547.24000   3.80000   3.81000 
  2.41887 546.87000   3.81000   3.82000 
  2.41900 546.53000   3.81000   3.82000 
  2.41912 546.24000   3.81000   3.82000 
  2.41925 546.03000   3.81000   3.82000 
  2.41937 545.90000   3.81000   3.82000 
  2.41950 545.87000   3.81000   3.82000 
  2.41963 545.93000   3.81000   3.82000 
  2.41975 546.07000   3.82000   3.83000 
  2.41987 546.25000   3.82000   3.83000 
